Elapsed Time,Motor0 Position,Motor1 Position,Motor0 Velocity,Motor1 Velocity,Motor Torque 0,Motor Torque 1
4.26e-07,0.382543,0.383972,-0.0118277,-0.00255663,0.0203879,0.124792
0.00276451,0.382548,0.384025,-0.00276176,0.0205625,0.683401,0.150804
0.0048844,0.382891,0.384294,0.125519,0.100764,-0.499497,-0.689177
0.00703679,0.383212,0.384377,0.123649,0.04205,-0.85133,-0.852621
0.0093026,0.382569,0.383533,-0.18844,-0.27511,-0.822138,-0.880997
0.0113608,0.381209,0.382094,-0.520809,-0.572791,-0.863623,-0.902162
0.0132461,0.379427,0.380374,-0.799524,-0.790612,-0.899784,-0.894419
0.0151359,0.377141,0.378375,-1.02914,-0.969277,-0.914589,-0.877442
0.0169791,0.374883,0.376047,-1.18966,-1.15108,-0.858923,-0.895304
0.0188891,0.372101,0.373358,-1.32058,-1.33763,-0.897104,-0.914032
0.0207271,0.36953,0.370536,-1.41273,-1.5061,-0.920429,-0.8984
0.0224937,0.366807,0.367406,-1.50171,-1.60359,-0.888012,-0.928576
0.0243689,0.363704,0.364231,-1.60225,-1.66058,-0.91106,-0.899818
0.0262283,0.360433,0.361163,-1.69689,-1.71286,-0.922945,-0.905127
0.0280158,0.356959,0.35782,-1.79531,-1.75808,-0.911539,-0.911675
0.0298673,0.353701,0.354306,-1.83178,-1.83203,-0.956243,-0.875683
0.0317522,0.350168,0.350703,-1.86741,-1.88604,-0.894594,-0.921843
0.0336197,0.346572,0.347056,-1.90223,-1.92553,-0.914803,-0.889536
0.035498,0.342903,0.343338,-1.93773,-1.96332,-0.878247,-0.94473
0.0373349,0.3391,0.339902,-1.99291,-1.96505,-0.924638,-0.872683
0.0391278,0.33551,0.336189,-2.02813,-1.97297,-0.921663,-0.903685
0.0409968,0.33158,0.332479,-2.06978,-1.97996,-0.755999,-0.78146
0.0429069,0.327515,0.328829,-2.04331,-1.95964,-0.541061,-0.834735
0.0447328,0.324173,0.325256,-1.95884,-1.9258,-0.411196,-0.744242
0.046616,0.320846,0.321732,-1.844,-1.89581,-0.651951,-0.684191
0.0484971,0.317475,0.318381,-1.82111,-1.82609,-0.626508,-0.712456
0.0503817,0.314021,0.315112,-1.83373,-1.77455,-0.607885,-0.688565
0.0522475,0.310823,0.311807,-1.74974,-1.76578,-0.455344,-0.778242
0.0541196,0.307939,0.30855,-1.61025,-1.74611,-0.678802,-0.746137
0.0559961,0.305163,0.305332,-1.53397,-1.72363,-0.697109,-0.622315
0.0578698,0.30225,0.302306,-1.54865,-1.65051,-0.741915,-0.676356
0.059736,0.29932,0.299523,-1.55442,-1.61399,-0.710977,-0.734324
0.061584,0.296601,0.296605,-1.48013,-1.57734,-0.706843,-0.830335
0.0635001,0.294087,0.293581,-1.38819,-1.53078,-0.796167,-0.786266
0.0653823,0.291574,0.290959,-1.30181,-1.44445,-0.955814,-0.761606
0.0672526,0.289321,0.288497,-1.29631,-1.36116,-0.938585,-0.922304
0.0691181,0.286881,0.286085,-1.29524,-1.31457,-0.911797,-0.954269
0.071011,0.284403,0.283709,-1.25896,-1.27835,-0.931913,-0.903352
0.0728561,0.282314,0.281598,-1.21838,-1.23427,-0.926404,-0.933559
0.0747236,0.280154,0.279473,-1.17627,-1.16694,-0.913489,-0.948705
0.0764919,0.278218,0.277384,-1.12892,-1.13002,-0.915138,-0.910568
0.0783708,0.276209,0.275352,-1.09132,-1.09843,-0.923306,-0.923751
0.0802446,0.274178,0.273455,-1.08394,-1.04191,-0.930789,-0.929459
0.0821475,0.272119,0.271665,-1.04889,-0.987594,-0.92868,-0.926343
0.0841365,0.270181,0.269798,-0.991225,-0.950636,-0.940466,-0.929905
0.0862657,0.26829,0.267911,-0.923693,-0.907586,-0.927705,-0.920273
0.0881207,0.266754,0.266365,-0.896566,-0.856386,-0.918629,-0.927009
0.0899977,0.265151,0.264851,-0.869252,-0.824613,-0.948006,-0.932993
0.0918705,0.263615,0.26339,-0.833884,-0.793085,-0.912559,-0.930629
0.0937428,0.262224,0.261985,-0.773937,-0.764233,-0.933281,-0.937826
0.0956274,0.260933,0.260666,-0.715852,-0.726611,-0.91795,-0.910022
0.0974906,0.25969,0.259417,-0.678584,-0.684329,-0.914261,-0.928616
0.0993858,0.258427,0.258196,-0.672058,-0.666097,-0.948217,-0.91454
0.101232,0.257189,0.257108,-0.6627,-0.636779,-0.915304,-0.913354
0.10299,0.256068,0.256047,-0.649855,-0.590429,-0.931172,-0.91981
0.104869,0.254983,0.254974,-0.599981,-0.580523,-0.900762,-0.951929
0.106747,0.254027,0.253961,-0.545115,-0.554543,-0.908038,-0.950373
0.10864,0.253031,0.252974,-0.514686,-0.535686,-0.924746,-0.908284
0.110483,0.252114,0.252033,-0.51976,-0.517447,-0.927126,-0.8973
0.112161,0.251251,0.251297,-0.528179,-0.50268,-0.919916,-0.903257
0.113534,0.250542,0.250575,-0.522897,-0.514303,-0.92727,-0.921778
0.114908,0.249858,0.249888,-0.508063,-0.506118,-0.92657,-0.919336
0.116284,0.249143,0.249218,-0.513524,-0.495632,-0.936061,-0.925939
0.117661,0.248495,0.248492,-0.491724,-0.510089,-0.925103,-0.927311
0.119034,0.247821,0.247809,-0.494227,-0.503336,-0.917608,-0.937007
0.120437,0.247138,0.247128,-0.473671,-0.500113,-0.895804,-0.931147
0.121783,0.246549,0.246431,-0.474058,-0.504289,-0.898738,-0.934283
0.123169,0.245891,0.245754,-0.457429,-0.498504,-0.930391,-0.918513
0.124536,0.245291,0.245074,-0.469052,-0.495106,-0.924644,-0.924435
0.125908,0.244655,0.244414,-0.466764,-0.485465,-0.91299,-0.890277
0.127285,0.244028,0.243744,-0.463285,-0.487749,-0.918432,-0.931452
0.128657,0.243413,0.243077,-0.453688,-0.48732,-0.919641,-0.921622
0.130035,0.242784,0.242431,-0.455551,-0.47746,-0.924424,-0.938731
0.131413,0.242196,0.241799,-0.442058,-0.468295,-0.931802,-0.925175
0.132783,0.241569,0.241154,-0.447572,-0.467655,-0.933394,-0.924169
0.134161,0.240961,0.240514,-0.44249,-0.468847,-0.938242,-0.93186
0.135533,0.240328,0.239912,-0.451707,-0.451464,-0.908164,-0.930362
0.136908,0.239757,0.239299,-0.431843,-0.446759,-0.90625,-0.935951
0.138285,0.23914,0.238677,-0.438743,-0.450254,-0.903634,-0.934215
0.13966,0.238601,0.238069,-0.416547,-0.446625,-0.921265,-0.912481
0.14103,0.238031,0.237484,-0.415363,-0.436878,-0.913609,-0.924162
0.14241,0.237467,0.236872,-0.411399,-0.442134,-0.931226,-0.908218
0.143785,0.2369,0.236301,-0.413589,-0.430761,-0.90323,-0.916248
0.145162,0.236329,0.235718,-0.414826,-0.430051,-0.933501,-0.905216
0.146535,0.235713,0.235145,-0.414185,-0.421852,-0.914865,-0.913053
0.147908,0.235233,0.234571,-0.398986,-0.419101,-0.927609,-0.927411
0.149282,0.234685,0.234007,-0.398822,-0.412559,-0.931661,-0.91682
0.150659,0.234196,0.233453,-0.374958,-0.408093,-0.915323,-0.910278
0.152032,0.233685,0.232906,-0.372119,-0.403911,-0.922128,-0.92542
0.153415,0.233159,0.232371,-0.378035,-0.397995,-0.911229,-0.925606
0.154785,0.232632,0.231859,-0.379667,-0.384614,-0.927582,-0.936493
0.156163,0.232124,0.231348,-0.374101,-0.379471,-0.908253,-0.930651
0.157535,0.231643,0.230824,-0.359357,-0.379402,-0.909581,-0.929814
0.158909,0.231175,0.230304,-0.350908,-0.379346,-0.914285,-0.938457
0.160284,0.230689,0.229792,-0.35131,-0.375116,-0.916315,-0.913883
0.161659,0.230212,0.229318,-0.34912,-0.360329,-0.911541,-0.919366
0.163033,0.229713,0.228825,-0.355721,-0.359509,-0.921598,-0.929302
0.164412,0.229228,0.228367,-0.354968,-0.347111,-0.906436,-0.921309
0.165784,0.228752,0.227876,-0.350349,-0.35236,-0.930127,-0.892382
0.167162,0.228287,0.227423,-0.345923,-0.342487,-0.904189,-0.915436
0.168533,0.227841,0.22696,-0.334412,-0.339376,-0.928872,-0.920064
0.169909,0.227386,0.226515,-0.334047,-0.332179,-0.927196,-0.936973
0.171284,0.226944,0.226076,-0.327677,-0.326129,-0.92574,-0.911756
0.172661,0.226504,0.225647,-0.322789,-0.319507,-0.920415,-0.909428
0.174037,0.226067,0.225223,-0.322052,-0.312476,-0.933301,-0.923407
0.175409,0.225636,0.224808,-0.316561,-0.307338,-0.908718,-0.912773
0.176783,0.2252,0.224401,-0.316493,-0.300163,-0.914131,-0.916055
0.178162,0.224785,0.22399,-0.308372,-0.297654,-0.927464,-0.930625
0.179533,0.224364,0.223591,-0.308559,-0.291141,-0.927319,-0.932656
0.18091,0.223964,0.223177,-0.301749,-0.296639,-0.901651,-0.931824
0.182286,0.223597,0.222794,-0.283391,-0.287786,-0.908021,-0.92933
0.183658,0.223208,0.222423,-0.284896,-0.280095,-0.915455,-0.929089
0.185034,0.222846,0.222024,-0.274904,-0.28608,-0.903539,-0.929063
0.186411,0.222446,0.221679,-0.28307,-0.267075,-0.926033,-0.915069
0.187786,0.222076,0.221311,-0.277341,-0.267912,-0.926796,-0.906326
0.189163,0.221721,0.220955,-0.266001,-0.26324,-0.915202,-0.900436
0.190536,0.221366,0.220614,-0.262179,-0.252707,-0.924623,-0.921059
0.191908,0.221018,0.220252,-0.260107,-0.257304,-0.900761,-0.908225
0.193285,0.220693,0.219916,-0.249155,-0.251602,-0.924187,-0.930753
0.194664,0.220381,0.219599,-0.237555,-0.240924,-0.922797,-0.92873
0.196034,0.220041,0.219271,-0.241377,-0.239741,-0.915173,-0.908637
0.197409,0.219724,0.218947,-0.233583,-0.237377,-0.929109,-0.923737
0.198786,0.219379,0.218619,-0.244089,-0.238081,-0.924712,-0.900283
0.200162,0.219092,0.218334,-0.226863,-0.222223,-0.927413,-0.927825
0.201534,0.218803,0.218024,-0.217319,-0.222945,-0.918643,-0.915951
0.202912,0.218517,0.217734,-0.21343,-0.218538,-0.929844,-0.917703
0.204284,0.218239,0.217461,-0.206769,-0.208409,-0.927674,-0.925089
0.205662,0.217955,0.217181,-0.204377,-0.205412,-0.922327,-0.913602
0.207038,0.217667,0.216916,-0.206121,-0.200715,-0.936737,-0.927287
0.208445,0.217364,0.216649,-0.206165,-0.196749,-0.912681,-0.914228
0.209792,0.217079,0.216409,-0.208147,-0.183917,-0.931148,-0.929617
0.211172,0.216838,0.216164,-0.192844,-0.178931,-0.919009,-0.923517
0.212536,0.216601,0.21591,-0.190094,-0.181934,-0.917711,-0.935889
0.213909,0.216359,0.215661,-0.182726,-0.182204,-0.925985,-0.926245
0.215285,0.216162,0.215444,-0.161216,-0.170693,-0.905698,-0.923555
0.216658,0.215921,0.215218,-0.167012,-0.16555,-0.911933,-0.923457
0.218034,0.21569,0.215001,-0.167541,-0.16164,-0.9089,-0.945214
0.21941,0.215469,0.214798,-0.162356,-0.153167,-0.920218,-0.914079
0.220782,0.215243,0.214585,-0.16205,-0.152927,-0.928731,-0.921468
0.222164,0.215024,0.214386,-0.157118,-0.150215,-0.920105,-0.92358
0.223536,0.214835,0.214207,-0.145711,-0.139775,-0.900689,-0.922044
0.224911,0.214642,0.214018,-0.141002,-0.138888,-0.919877,-0.930631
0.226286,0.214455,0.21385,-0.138648,-0.131212,-0.917679,-0.904688
0.22766,0.214275,0.213678,-0.135921,-0.127827,-0.92708,-0.921898
0.229037,0.214097,0.213519,-0.133753,-0.121603,-0.929367,-0.922228
0.230409,0.213928,0.213368,-0.127465,-0.117246,-0.924538,-0.915407
0.231787,0.213748,0.213238,-0.13011,-0.10517,-0.91962,-0.915745
0.233161,0.21359,0.213099,-0.124544,-0.10293,-0.903337,-0.907969
0.234534,0.213458,0.212957,-0.109382,-0.102259,-0.924142,-0.909866
0.235906,0.213323,0.212835,-0.102178,-0.0942589,-0.914212,-0.925775
0.237286,0.213194,0.212722,-0.0950249,-0.0853424,-0.919257,-0.912344
0.238659,0.213071,0.212605,-0.0925066,-0.0867208,-0.910394,-0.929192
0.240033,0.212956,0.21251,-0.0867995,-0.0792329,-0.904492,-0.915567
0.241411,0.212843,0.212398,-0.0862854,-0.0801531,-0.923396,-0.906289
0.242786,0.212751,0.212308,-0.0755864,-0.0719183,-0.912007,-0.909117
0.244162,0.212673,0.21223,-0.067279,-0.0640859,-0.9034,-0.913134
0.245535,0.212583,0.212131,-0.0662135,-0.0681726,-0.918979,-0.906539
0.246908,0.21251,0.21205,-0.0567811,-0.0642368,-0.936249,-0.912063
0.248287,0.212454,0.211985,-0.0520798,-0.0575648,-0.921807,-0.927108
0.249655,0.212389,0.211923,-0.0490251,-0.0502781,-0.905036,-0.92044
0.251037,0.21233,0.211863,-0.045799,-0.0466609,-0.923564,-0.926549
0.252412,0.212295,0.211815,-0.0376778,-0.0414119,-0.906976,-0.923937
0.253788,0.212253,0.211784,-0.0342133,-0.0316573,-0.922305,-0.908537
0.255172,0.212216,0.211741,-0.0319409,-0.0306514,-0.916398,-0.92624
0.256534,0.212213,0.211693,-0.0184479,-0.0315343,-0.914882,-0.916447
0.257909,0.212215,0.211677,-0.00830019,-0.0234709,-0.937022,-0.923886
0.25929,0.212151,0.211653,-0.024304,-0.0183189,-0.923111,-0.917378
0.26066,0.212153,0.211653,-0.0111314,-0.00885663,-0.921943,-0.906121
0.262033,0.212156,0.211646,-0.00433648,-0.00831832,-0.945459,-0.922543
0.263409,0.212151,0.211631,-0.00336045,-0.00993323,-0.916155,-0.912205
0.264784,0.212176,0.211659,0.00781542,0.00593278,-0.922427,-0.92191
0.266164,0.212159,0.211658,-0.00168407,0.003638,-0.914624,-0.917859
0.267534,0.212217,0.211669,0.0206826,0.00782895,-0.91251,-0.929598
0.268909,0.212223,0.211672,0.0130755,0.00478725,-0.913498,-0.921763
0.270285,0.212245,0.211723,0.0163091,0.0213369,-0.909186,-0.923386
0.271662,0.212284,0.211737,0.0225154,0.0146909,-0.932247,-0.925775
0.273035,0.212311,0.211781,0.0212786,0.0221471,-0.918152,-0.939695
0.274414,0.212349,0.211796,0.0222099,0.0165964,-0.907816,-0.92577
0.275788,0.212408,0.211851,0.032447,0.0289364,-0.934142,-0.932463
0.277165,0.212471,0.21191,0.0402031,0.0347479,-0.908466,-0.925907
0.278537,0.212528,0.211978,0.0427139,0.043005,-0.919269,-0.919878
0.279911,0.212568,0.211994,0.0370515,0.026189,-0.920674,-0.924172
0.281282,0.212639,0.212061,0.0456346,0.0367074,-0.914344,-0.907467
0.282659,0.212689,0.212124,0.0413281,0.0404346,-0.917723,-0.917349
0.284036,0.212757,0.212197,0.0467298,0.0461976,-0.911239,-0.913759
0.28541,0.212833,0.21226,0.0505818,0.0478293,-0.91429,-0.914936
0.286786,0.212903,0.212339,0.0493152,0.0521804,-0.921865,-0.920949
0.288163,0.212963,0.212419,0.0461934,0.0530707,-0.908102,-0.92167
0.289533,0.213063,0.212488,0.060044,0.0524896,-0.926045,-0.913518
0.290908,0.213145,0.212574,0.0595672,0.0594373,-0.918559,-0.922634
0.292282,0.21321,0.212661,0.0525562,0.0606051,-0.92438,-0.924686
0.293661,0.21331,0.212747,0.0616608,0.0613707,-0.915069,-0.932414
0.295036,0.213398,0.212842,0.0612435,0.0648799,-0.923789,-0.934527
0.296413,0.213509,0.212934,0.0702736,0.0662881,-0.917558,-0.914869
0.297787,0.213608,0.213045,0.0728888,0.0720995,-0.909379,-0.91094
0.299166,0.213698,0.213133,0.0684855,0.0683035,-0.92129,-0.911103
0.300532,0.213807,0.213258,0.0723002,0.0812544,-0.893033,-0.927786
0.301906,0.213926,0.213371,0.0799743,0.0824447,-0.910627,-0.933604
0.303289,0.214029,0.213489,0.0762863,0.0845122,-0.92237,-0.924415
0.304658,0.214157,0.213609,0.0839306,0.086861,-0.916319,-0.922866
0.306034,0.214269,0.213738,0.0826342,0.0893495,-0.920665,-0.912934
0.307412,0.214383,0.213851,0.0840125,0.0846873,-0.923632,-0.922739
0.308784,0.214518,0.213997,0.0905988,0.0960103,-0.918935,-0.921582
0.310165,0.214652,0.214103,0.0940112,0.0861997,-0.914837,-0.918808
0.311539,0.214792,0.21426,0.0983698,0.0993575,-0.911757,-0.913684
0.312913,0.214908,0.214388,0.0933183,0.0976271,-0.925016,-0.906882
0.314281,0.215046,0.214536,0.093959,0.104048,-0.909808,-0.926271
0.315663,0.215198,0.214667,0.10293,0.0996462,-0.935926,-0.917728
0.317039,0.215335,0.21481,0.102974,0.10268,-0.910683,-0.91876
0.318409,0.215496,0.214968,0.10965,0.10912,-0.921112,-0.917624
0.319788,0.215638,0.215106,0.106707,0.103632,-0.923032,-0.910172
0.321174,0.215819,0.215276,0.115961,0.11354,-0.91058,-0.922475
0.322536,0.215951,0.215408,0.112489,0.103681,-0.916454,-0.9037
0.323908,0.216107,0.21558,0.115111,0.113836,-0.910396,-0.917119
0.325286,0.216265,0.215762,0.113398,0.124108,-0.940596,-0.902146
0.326666,0.216426,0.215921,0.116691,0.120979,-0.932972,-0.92229
0.328035,0.216608,0.216081,0.124298,0.118329,-0.930898,-0.91717
0.329407,0.216755,0.216254,0.114336,0.12153,-0.902162,-0.925079
0.330789,0.216951,0.216434,0.129923,0.127204,-0.897323,-0.9126
0.332166,0.21712,0.216594,0.127718,0.122704,-0.908868,-0.918369
0.333538,0.217282,0.216761,0.122085,0.123184,-0.90315,-0.942307
0.334914,0.217464,0.216936,0.126265,0.125397,-0.914842,-0.92169
0.336289,0.217646,0.217129,0.131026,0.130924,-0.924044,-0.917666
0.337661,0.217819,0.217296,0.128045,0.126962,-0.911186,-0.919805
0.339037,0.218016,0.217473,0.135742,0.128167,-0.910501,-0.936002
0.340409,0.218202,0.217659,0.136636,0.128845,-0.913473,-0.928151
0.341791,0.218403,0.217848,0.14019,0.132982,-0.920183,-0.908211
0.343178,0.218604,0.218017,0.136681,0.128342,-0.924192,-0.913787
0.344539,0.21878,0.218213,0.136308,0.133686,-0.92661,-0.926647
0.345912,0.218978,0.218402,0.14016,0.135323,-0.920241,-0.908637
0.347286,0.219168,0.218596,0.138856,0.140514,-0.927874,-0.933945
0.348663,0.219371,0.218786,0.144057,0.138527,-0.915356,-0.901211
0.350038,0.21957,0.218979,0.144258,0.138367,-0.917096,-0.917709
0.351413,0.219775,0.219185,0.144861,0.145883,-0.920514,-0.924134
0.352787,0.219969,0.219401,0.143409,0.153538,-0.9272,-0.918428
0.354167,0.220171,0.219579,0.145554,0.142169,-0.927864,-0.905482
0.355539,0.220368,0.21977,0.145092,0.140367,-0.9099,-0.926693
0.356913,0.220588,0.219974,0.152968,0.144722,-0.914151,-0.92335
0.358287,0.220789,0.220185,0.148147,0.150405,-0.905284,-0.914154
0.359668,0.220992,0.22039,0.146515,0.152756,-0.911422,-0.930313
0.36104,0.221213,0.220579,0.152498,0.146015,-0.935141,-0.943879
0.362413,0.221415,0.220786,0.149876,0.148418,-0.93946,-0.912555
0.363786,0.221634,0.221005,0.155955,0.153719,-0.909388,-0.924952
0.365166,0.221837,0.221204,0.152312,0.150522,-0.923194,-0.913704
0.366539,0.222052,0.221426,0.153184,0.155632,-0.907972,-0.925953
0.367914,0.222251,0.221622,0.148467,0.148915,-0.936369,-0.925367
0.369289,0.222472,0.221842,0.154786,0.154145,-0.922758,-0.913921
0.370662,0.222674,0.222026,0.153124,0.143023,-0.911161,-0.936341
0.37204,0.222881,0.22224,0.153459,0.147891,-0.92035,-0.936561
0.373415,0.22308,0.22247,0.149458,0.158539,-0.928544,-0.925946
0.374788,0.223301,0.222676,0.154473,0.154706,-0.937747,-0.90485
0.376167,0.223527,0.222883,0.158861,0.15164,-0.922702,-0.912955
0.377539,0.223725,0.223084,0.149876,0.148919,-0.928559,-0.911361
0.378914,0.223948,0.223317,0.154927,0.160847,-0.903061,-0.917111
0.380287,0.224169,0.223519,0.157624,0.153223,-0.909805,-0.917312
0.381668,0.224389,0.223719,0.160113,0.148051,-0.923875,-0.910877
0.383041,0.224604,0.223947,0.159666,0.157831,-0.919368,-0.914636
0.384466,0.224805,0.224142,0.147126,0.148909,-0.922909,-0.909688
0.385788,0.225008,0.224372,0.153765,0.156833,-0.943623,-0.916561
0.387171,0.22526,0.224586,0.161305,0.156436,-0.915658,-0.911684
0.38854,0.225456,0.224796,0.160627,0.154469,-0.922573,-0.91776
0.389913,0.225665,0.224996,0.155359,0.147863,-0.905657,-0.920011
0.391293,0.225886,0.225236,0.155568,0.158923,-0.895511,-0.918351
0.392664,0.226107,0.225453,0.158205,0.156759,-0.916472,-0.949524
0.394037,0.226335,0.22565,0.161327,0.150755,-0.916886,-0.900574
0.395415,0.226556,0.225878,0.159628,0.157887,-0.906548,-0.919293
0.396787,0.226769,0.226084,0.156663,0.153221,-0.905939,-0.922128
0.398167,0.226995,0.226317,0.15974,0.160847,-0.925648,-0.920837
0.399542,0.227218,0.226527,0.160388,0.156254,-0.908215,-0.907866
0.400917,0.22744,0.226746,0.162333,0.156524,-0.906091,-0.921064
0.402286,0.227655,0.226957,0.160664,0.15238,-0.920926,-0.911102
0.403665,0.227891,0.227193,0.166818,0.162905,-0.90009,-0.920756
0.405035,0.228118,0.227406,0.166304,0.15912,-0.923236,-0.915372
0.406415,0.228307,0.227623,0.150166,0.158414,-0.915687,-0.91747
0.407789,0.228541,0.227852,0.158563,0.1632,-0.912865,-0.931397
0.409258,0.22878,0.228075,0.160016,0.161547,-0.916506,-0.90149
0.410542,0.228971,0.228309,0.158638,0.167649,-0.928066,-0.920351
0.411913,0.229185,0.228543,0.158697,0.171963,-0.940334,-0.931596
0.413292,0.229414,0.228729,0.163153,0.150843,-0.915495,-0.932576
0.414664,0.229617,0.228946,0.156075,0.152849,-0.889296,-0.921795
0.416037,0.229839,0.229168,0.159576,0.155928,-0.904002,-0.924672
0.41741,0.230049,0.229386,0.155113,0.159057,-0.924548,-0.922636
0.418787,0.230273,0.229624,0.158459,0.162952,-0.915409,-0.930563
0.420164,0.230488,0.229821,0.158861,0.152374,-0.921737,-0.934447
0.421536,0.230688,0.23006,0.150583,0.162276,-0.940081,-0.920503
0.422912,0.230898,0.23029,0.152491,0.166094,-0.924952,-0.926256
0.424297,0.231145,0.230509,0.157773,0.165403,-0.89929,-0.917015
0.425666,0.231348,0.230722,0.15831,0.15904,-0.924181,-0.898356
0.427038,0.23154,0.230944,0.147231,0.15893,-0.925313,-0.923294
0.428416,0.231756,0.231158,0.151507,0.156047,-0.918781,-0.902137
0.42979,0.231987,0.231381,0.160679,0.156148,-0.919823,-0.897435
0.431176,0.23222,0.231607,0.160344,0.159841,-0.931939,-0.918328
0.432539,0.23239,0.231832,0.149607,0.161674,-0.913088,-0.930292
0.433917,0.232629,0.232038,0.16386,0.155643,-0.93106,-0.922821
0.435289,0.232852,0.232249,0.162832,0.153583,-0.916467,-0.908658
0.436665,0.233058,0.232464,0.157214,0.154864,-0.919334,-0.927576
0.438038,0.233259,0.232673,0.150598,0.151625,-0.92131,-0.902093
0.439414,0.233461,0.232906,0.147588,0.161071,-0.914264,-0.916352
0.440785,0.233672,0.233124,0.152774,0.160763,-0.904887,-0.916007
0.442173,0.23391,0.23333,0.15451,0.157424,-0.913437,-0.923241
0.443541,0.234115,0.233537,0.15866,0.155237,-0.910822,-0.917238
0.44491,0.234338,0.233753,0.160269,0.157163,-0.892208,-0.918468
